#GRM32ER71K475KE14,,
#2023/01/18,,
#c_dcbias_capchange,,
#capchange  25.0degC  AC1.0Vrms,,
DC Bias[V],Cap. Change Rate[%],
0.0,0.0,
0.4,-0.1209970345631417,
0.8,-0.21616545372524776,
1.2000000000000002,-0.2911972296056109,
1.6,-0.3520568202805552,
2.0,-0.40466261908485013,
2.4000000000000004,-0.45468596893573077,
2.8000000000000003,-0.5074287080676143,
3.2,-0.5677532862612189,
3.6,-0.6400480737707492,
4.0,-0.7282161616770644,
4.4,-0.8356797323516574,
4.800000000000001,-0.965394611882775,
5.2,-1.1198713240659686,
5.6000000000000005,-1.3012001232992398,
6.0,-1.5110782727472127,
6.4,-1.7508383746219547,
6.800000000000001,-2.0214769315339165,
7.2,-2.3236825753816692,
7.6000000000000005,-2.6578635794277328,
8.0,-3.024174394627843,
8.4,-3.4225410396462985,
8.8,-3.85268523671245,
9.200000000000001,-4.314147230345833,
9.600000000000001,-4.806307258379661,
10.0,-5.328405668299752,
10.4,-5.879561689260537,
10.8,-6.458790882971388,
11.200000000000001,-7.065021306200769,
11.600000000000001,-7.697108424758248,
12.0,-8.353848824087484,
12.4,-9.03399276545147,
12.8,-9.736255639423286,
13.200000000000001,-10.459328370218524,
13.600000000000001,-11.201886825498143,
14.0,-11.96260028674877,
14.4,-12.740139035306042,
14.8,-13.533181108622772,
15.200000000000001,-14.340418280548606,
15.600000000000001,-15.16056131823973,
16.0,-15.992344566929484,
16.400000000000002,-16.834529912168637,
16.8,-17.685910167370967,
17.2,-18.545311932577878,
17.6,-19.411597968338768,
18.0,-20.28366912651327,
18.400000000000002,-21.160465877661927,
18.8,-22.040969472526783,
19.200000000000003,-22.924202772949155,
19.6,-23.80923078541004,
20.0,-24.695160928271754,
20.400000000000002,-25.581143061718382,
20.8,-26.466369307376112,
21.200000000000003,-27.35007368264053,
21.6,-28.231531572849143,
22.0,-29.110059062642122,
22.400000000000002,-29.985012146112012,
22.8,-30.85578583371734,
23.200000000000003,-31.72181317237349,
23.6,-32.58256419365956,
24.0,-33.43754480370791,
24.400000000000002,-34.28629562703838,
24.8,-35.1283908153865,
25.200000000000003,-35.96343683144767,
25.6,-36.79107121639997,
26.0,-37.61096134910408,
26.400000000000002,-38.42280320396275,
26.8,-39.22632011360171,
27.200000000000003,-40.021261541766904,
27.6,-40.80740187112496,
28.0,-41.58453921002365,
28.400000000000002,-42.352494221674256,
28.8,-43.11110897869164,
29.200000000000003,-43.86024584544237,
29.6,-44.599786390218966,
30.0,-45.329630328860894,
30.400000000000002,-46.04969450109184,
30.8,-46.759911880531426,
31.200000000000003,-47.46023061904508,
31.6,-48.15061312586568,
32.0,-48.83103518167362,
32.4,-49.5014850876551,
32.800000000000004,-50.161962849362695,
33.2,-50.812479395070945,
33.6,-51.45305582818502,
34.0,-52.083722713149264,
34.4,-52.704519394212255,
34.800000000000004,-53.31549334632613,
35.2,-53.91669955739067,
35.6,-54.508199941001514,
36.0,-55.090062778822855,
36.4,-55.662362191664705,
36.800000000000004,-56.22517763833008,
37.2,-56.778593441276406,
37.6,-57.322698338127395,
38.0,-57.85758505806542,
38.400000000000006,-58.38334992214422,
38.800000000000004,-58.90009246655854,
39.2,-59.407915087921914,
39.6,-59.906922709620105,
40.0,-60.39722246831802,
40.400000000000006,-60.87892341972043,
40.800000000000004,-61.352136262708456,
41.2,-61.81697308099301,
41.6,-62.27354710145215,
42.0,-62.72197246834323,
42.400000000000006,-63.1623640326058,
42.800000000000004,-63.59483715550027,
43.2,-64.01950752584739,
43.6,-64.43649099016733,
44.0,-64.84590339503605,
44.400000000000006,-65.24786044101253,
44.800000000000004,-65.64247754750627,
45.2,-66.02986972798554,
45.6,-66.41015147495499,
46.0,-66.78343665414955,
46.400000000000006,-67.14983840741989,
46.800000000000004,-67.50946906380833,
47.2,-67.86244005833468,
47.6,-68.20886185803954,
48.0,-68.54884389484556,
48.400000000000006,-68.88249450482603,
48.800000000000004,-69.20992087348752,
49.2,-69.53122898669193,
49.6,-69.84652358686371,
50.0,-70.15590813414542,
50.400000000000006,-70.45948477218276,
50.800000000000004,-70.75735429823553,
51.2,-71.04961613733045,
51.6,-71.33636832018198,
52.0,-71.61770746462628,
52.400000000000006,-71.8937287603264,
52.800000000000004,-72.16452595651808,
53.2,-72.43019135258244,
53.6,-72.69081579123917,
54.0,-72.94648865416966,
54.400000000000006,-73.197297859888,
54.800000000000004,-73.4433298636899,
55.2,-73.68466965951711,
55.6,-73.92140078358887,
56.0,-74.15360531965594,
56.400000000000006,-74.38136390574348,
56.800000000000004,-74.60475574226018,
57.2,-74.82385860135217,
57.6,-75.03874883739337,
58.0,-75.24950139850861,
58.400000000000006,-75.45618983903145,
58.800000000000004,-75.65888633280707,
59.2,-75.85766168725416,
59.6,-76.05258535810721,
60.0,-76.24372546476404,
60.400000000000006,-76.43114880616997,
60.800000000000004,-76.61492087717363,
61.2,-76.79510588529433,
61.6,-76.97176676784335,
62.0,-77.14496520935052,
62.400000000000006,-77.31476165924298,
62.800000000000004,-77.48121534973342,
63.2,-77.64438431387686,
63.6,-77.80432540375419,
64.0,-77.9610943087493,
64.4,-78.11474557388505,
64.8,-78.26533261818754,
65.2,-78.41290775305146,
65.60000000000001,-78.55752220057722,
66.0,-78.69922611186233,
66.4,-78.83806858521649,
66.8,-78.97409768428739,
67.2,-79.10736045607533,
67.60000000000001,-79.23790294882038,
68.0,-79.36577022974724,
68.4,-79.49100640265343,
68.8,-79.61365462532918,
69.2,-79.7337571267963,
69.60000000000001,-79.85135522435621,
70.0,-79.966489340441,
70.4,-80.07919901925287,
70.8,-80.18952294319246,
71.2,-80.2974989490653,
71.60000000000001,-80.40316404406016,
72.0,-80.50655442149865,
72.4,-80.6077054763488,
72.8,-80.7066518204993,
73.2,-80.80342729779497,
73.60000000000001,-80.89806499882636,
74.0,-80.99059727547623,
74.4,-81.08105575521827,
74.8,-81.16947135517132,
75.2,-81.25587429590371,
75.60000000000001,-81.34029411499195,
76.0,-81.42275968033262,
76.4,-81.50329920320713,
76.80000000000001,-81.58194025110276,
77.2,-81.6587097602888,
77.60000000000001,-81.73363404815035,
78.0,-81.8067388252824,
78.4,-81.87804920734351,
78.80000000000001,-81.9475897266744,
79.2,-82.01538434368102,
79.60000000000001,-82.08145645798608,
80.0,-82.14582891935073,
